Groove radius = 1.0000 in
Lathe tool diameter = 0.2500 in

     X     DOC
 0.875   0.125
 0.813   0.450
 0.750   0.576
 0.688   0.666
 0.625   0.737
 0.563   0.795
 0.500   0.843
 0.438   0.883
 0.375   0.916
 0.313   0.942
 0.250   0.964
 0.188   0.980
 0.125   0.991
 0.063   0.998
 0.000   1.000
